#F nifilm-tof-4.dat
#D 2011-01-19 22:06:12
#C Title: Simulated 100 A Ni film
#C Detector Angle: (3, 'degree')

#N 5
#L Q(1/A) dQ(1/A) R() dR() L(A)
4.405967712879876874e-02 3.880635615199675825e-04 1.268541842828591580e-02 1.326804523455271754e-04 1.492686886204714014e+01
4.494087067137474828e-02 3.958248327503670057e-04 1.173984292608368923e-02 1.288495547774550940e-04 1.463418515886974447e+01
4.583968808480225199e-02 4.037413294053742840e-04 1.022385306529403730e-02 1.213482583302496928e-04 1.434724035183308111e+01
4.675648184649829064e-02 4.118161559934818195e-04 8.844666549990384125e-03 1.139122441067248813e-04 1.406592191356184429e+01
4.769161148342826451e-02 4.200524791133513920e-04 7.648004397629934101e-03 1.069168362750504066e-04 1.379011952309984679e+01
4.864544371309682119e-02 4.284535286956184523e-04 6.351182573970490415e-03 9.979580607030223770e-05 1.351972502264690945e+01
4.961835258735876331e-02 4.370225992695307726e-04 5.290919363188931017e-03 9.867976379280684208e-05 1.325463237514402870e+01
5.061071963910594024e-02 4.457630512549214303e-04 4.787970793135167685e-03 9.478283528253441152e-05 1.299473762269022359e+01
5.162293403188806390e-02 4.546783122800200118e-04 3.815176134408265318e-03 8.540848079626976047e-05 1.273993884577472713e+01
5.265539271252582532e-02 4.637718785256203903e-04 2.933666641146069533e-03 7.560637119213874709e-05 1.249013612330855594e+01
5.370850056677634043e-02 4.730473160961326529e-04 2.469175899049939633e-03 7.003715922046986435e-05 1.224523149343976058e+01
5.478267057811186252e-02 4.825082624180554208e-04 1.948647691502368136e-03 5.014603451228785447e-05 1.200512891513702129e+01
5.587832398967410019e-02 4.921584276664165217e-04 1.491762982474649371e-03 3.745084046162578702e-05 1.176973423052649181e+01
5.699589046946758331e-02 5.020015962197447654e-04 1.147183570839984410e-03 3.316297433574577749e-05 1.153895512796714939e+01
5.813580827885694163e-02 5.120416281441398645e-04 8.800372665052977198e-04 2.933118990573393094e-05 1.131270110585014521e+01
5.929852444443407811e-02 5.222824607070225512e-04 5.868022075150464709e-04 2.418585679332980608e-05 1.109088343710798519e+01
6.048449493332275911e-02 5.327281099211630998e-04 4.125747541190689731e-04 2.047996472478453965e-05 1.087341513441959329e+01
6.169418483198921971e-02 5.433826721195863553e-04 2.455251703285760774e-04 1.415357277672336257e-05 1.066021091609763971e+01
6.292806852862900535e-02 5.542503255619780390e-04 1.596984487186869103e-04 1.091763289032513271e-05 1.045118717264474562e+01
6.418662989920158324e-02 5.653353320732176996e-04 7.383441362722739730e-05 7.497025656462859741e-06 1.024626193396543528e+01
6.547036249718561629e-02 5.766420387146819993e-04 4.192576806791476640e-05 5.705494020899414056e-06 1.004535483722101574e+01
6.677976974712933333e-02 5.881748794889756892e-04 3.959655873080792255e-05 5.599909947675096411e-06 9.848387095314720341e+00
6.811536514207190696e-02 5.999383770787549948e-04 4.604287849218394293e-05 6.098668676023805891e-06 9.655281465994825396e+00
6.947767244491334648e-02 6.119371446203301489e-04 7.014045758843430965e-05 6.718473019385492940e-06 9.465962221563554380e+00
7.086722589381161397e-02 6.241758875127367302e-04 1.084806341128750472e-04 8.320536120669268630e-06 9.280355119179954926e+00
7.228457041168787067e-02 6.366594052629918161e-04 1.802948138955987902e-04 1.083384199994567071e-05 9.098387371745051411e+00
7.373026181992162198e-02 6.493925933682516069e-04 1.998343457120113707e-04 1.151941102686642170e-05 8.919987619357893749e+00
7.520486705632005442e-02 6.623804452356164526e-04 2.762892402375780238e-04 1.368024509069665897e-05 8.745085901331268730e+00
7.670896439744645523e-02 6.756280541403288879e-04 3.046088873619270422e-04 1.450739415976933111e-05 8.573613628756145744e+00
7.824314368539539433e-02 6.891406152231356521e-04 3.758449471289534603e-04 1.200818241350529508e-05 8.405503557604063758e+00
7.980800655910329222e-02 7.029234275275982220e-04 4.315155223707733100e-04 1.296057685887345674e-05 8.240689762356925741e+00
8.140416669028535668e-02 7.169818960781501561e-04 4.691184620298424215e-04 1.364820793573254175e-05 8.079107610153849706e+00
8.303225002409107824e-02 7.313215339997131007e-04 4.971226910322280911e-04 1.418967098166553617e-05 7.920693735444949368e+00
8.469289502457288954e-02 7.459479646797075947e-04 4.872450088977152752e-04 1.418770578123217705e-05 7.765386015142107468e+00
8.638675292506435566e-02 7.608669239733016404e-04 5.371036177305722444e-04 1.503416209250818854e-05 7.613123544256968245e+00
8.811448798356563694e-02 7.760842624527676537e-04 5.340912618746950988e-04 1.216368890836210076e-05 7.463846612016634907e+00
8.987677774323694913e-02 7.916059477018230718e-04 5.142725721261280202e-04 1.205452310921364906e-05 7.317496678447681369e+00
9.167431329810168950e-02 8.074380666558592752e-04 5.236938423107117277e-04 1.228553905659167851e-05 7.174016351419295390e+00
9.350779956406372884e-02 8.235868279889764932e-04 4.842180424480816889e-04 1.193074284893436074e-05 7.033349364136563864e+00
9.537795555534502034e-02 8.400585645487563483e-04 4.693271623562905357e-04 1.186264953950462153e-05 6.895440553075061985e+00
9.728551466645191104e-02 8.568597358397315577e-04 4.133667774188776178e-04 1.017848966428747009e-05 6.760235836348099880e+00
9.923122495978095592e-02 8.739969305565259720e-04 3.767783388233829009e-04 8.598130760506139967e-06 6.627682192498137503e+00
1.012158494589765756e-01 8.914768691676566714e-04 3.298977773733219126e-04 8.125323976123281932e-06 6.497727639704056202e+00
1.032401664481561038e-01 9.093064065510097875e-04 2.938470924232492506e-04 7.744688425888609121e-06 6.370321215396133496e+00
1.053049697771192145e-01 9.274925346820298011e-04 2.456071947504325859e-04 7.150779847279175766e-06 6.245412956270719462e+00
1.074110691726616051e-01 9.460423853756705229e-04 1.980801211493175482e-04 6.485494262012136854e-06 6.122953878696783647e+00
1.095592905561148384e-01 9.649632330831839355e-04 1.539337434148480509e-04 5.148710761313446983e-06 6.002895959506650669e+00
1.117504763672371310e-01 9.842624977448473627e-04 1.164056308261696019e-04 3.585741346377400703e-06 5.885192117163382974e+00
1.139854858945818922e-01 1.003947747699744826e-03 8.426265663674991160e-05 3.081077661030880059e-06 5.769796193297433540e+00
1.162651956124735320e-01 1.024026702653739592e-03 5.285566643577995535e-05 2.464473283120440927e-06 5.656662934605327209e+00
1.185904995247230032e-01 1.044507236706814380e-03 2.976923056561270314e-05 1.867915456302134423e-06 5.545747975103261673e+00
1.209623095152174699e-01 1.065397381440950702e-03 2.056186539539797288e-05 1.567843657276208252e-06 5.437007818728687880e+00
1.233815557055218115e-01 1.086705329069769790e-03 7.323400015445356159e-06 7.677037303688184244e-07 5.330399822283027333e+00
1.258491868196322527e-01 1.108439435651165008e-03 3.573852015971336191e-06 5.158420280353718742e-07 5.225882178708850745e+00
1.283661705560248945e-01 1.130608224364188430e-03 2.582108081539231132e-06 4.428284548779364735e-07 5.123413900694950840e+00
1.309334939671454034e-01 1.153220388851472229e-03 5.344963728786299199e-06 6.434597381912088157e-07 5.022954804602893120e+00
1.335521638464883254e-01 1.176284796628501760e-03 1.145681355778968552e-05 9.514420299608435796e-07 4.924465494708718083e+00
1.362232071234180664e-01 1.199810492561071513e-03 1.781262908253494003e-05 1.157064900676195136e-06 4.827907347753646050e+00
1.389476712658864466e-01 1.223806702412293286e-03 2.423946972465483232e-05 1.162207703511393132e-06 4.733242497797691684e+00
1.417266246912042005e-01 1.248282836460539152e-03 3.182893127982269510e-05 1.345039239868233518e-06 4.640433821370285372e+00
1.445611571850282662e-01 1.273248493189749718e-03 3.687154339258349301e-05 1.462078751639516912e-06 4.549444922912044831e+00
1.474523803287288437e-01 1.298713463053545111e-03 3.695850457982976963e-05 1.478367501631931534e-06 4.460240120502004579e+00
1.504014279353034222e-01 1.324687732314615805e-03 4.348803750095813685e-05 1.619614366023711355e-06 4.372784431864710442e+00
1.534094564940094718e-01 1.351181486960908139e-03 4.117282953601503854e-05 1.513574473559348417e-06 4.287043560651676799e+00
1.564776456238896885e-01 1.378205116700126310e-03 4.089476021152451410e-05 1.203332243687510967e-06 4.202983882991839337e+00
1.596071985363674839e-01 1.405769219034129231e-03 3.611485317381456266e-05 1.142072556271534850e-06 4.120572434305724840e+00
1.627993425070948241e-01 1.433884603414811677e-03 3.241669220881575510e-05 1.092784183251355388e-06 4.039776896378161730e+00
1.660553293572367417e-01 1.462562295483107533e-03 2.581326465727911922e-05 9.848501850153074906e-07 3.960565584684472284e+00
1.693764359443814538e-01 1.491813541392770061e-03 2.019747057332429846e-05 8.798245220311981741e-07 3.882907435965169185e+00
1.727639646632690984e-01 1.521649812220625744e-03 1.363252893190352109e-05 6.675923644636802450e-07 3.806771996044282957e+00
1.762192439565344881e-01 1.552082808465037956e-03 8.390322089820380136e-06 5.096779079743971355e-07 3.732129407886552119e+00
1.797436288356651646e-01 1.583124464634338806e-03 4.389593601087565684e-06 3.723212870328244835e-07 3.658950399888776683e+00
1.833385014123784795e-01 1.614786953927025695e-03 2.222587033413970395e-06 2.675683334838229905e-07 3.587206274400761341e+00
1.870052714406260363e-01 1.647082693005566143e-03 7.228239569537645650e-07 1.541066412325696638e-07 3.516868896471334605e+00
1.907453768694385710e-01 1.680024346865677254e-03 4.691784593318075728e-07 1.253932472855527655e-07 3.447910682815034100e+00
1.945602844068273773e-01 1.713624833802991241e-03 9.153555779688456638e-07 1.671203759694559565e-07 3.380304590995130809e+00
1.984514900949639060e-01 1.747897330479051018e-03 2.064741320620346888e-06 2.075145248486027734e-07 3.314024108818755643e+00
2.024205198968631880e-01 1.782855277088631627e-03 3.956795185334286388e-06 2.901268733310224383e-07 3.249043243939956582e+00
2.064689302948004568e-01 1.818512382630404784e-03 4.578394945094890403e-06 3.151904280065630986e-07 3.185336513666624292e+00
2.105983089006964459e-01 1.854882630283012819e-03 5.378203654460739698e-06 3.450128530821672416e-07 3.122878934967278752e+00
2.148102750787104220e-01 1.891980282888672694e-03 6.050147123388352584e-06 3.695726741641449849e-07 3.061646014673802263e+00
2.191064805802846460e-01 1.929819888546446425e-03 5.769969793501706754e-06 3.171471372990037900e-07 3.001613739876276554e+00
2.234886101918903134e-01 1.968416286317374933e-03 5.318202419451116780e-06 3.035266511974080627e-07 2.942758568506153694e+00
2.279583823957281319e-01 2.007784612043723299e-03 4.081677049091436671e-06 2.685551813591632577e-07 2.885057420104072179e+00
2.325175500436426901e-01 2.047940304284597782e-03 3.009839257758582765e-06 2.329087049053478267e-07 2.828487666768698006e+00
2.371679010445155722e-01 2.088899110370289261e-03 1.783194587800200798e-06 1.810561400871013328e-07 2.773027124283037104e+00
2.419112590654058648e-01 2.130677092577695601e-03 8.041020201413100591e-07 1.226244578010301811e-07 2.718654043414742372e+00
2.467494842467139737e-01 2.173290634429248750e-03 3.605473607345187432e-07 7.210948516714160990e-08 2.665347101387002482e+00
2.516844739316482782e-01 2.216756447117834792e-03 1.029723262257774347e-07 3.891988306119008316e-08 2.613085393516668908e+00
2.567181634102812526e-01 2.261091576060191097e-03 1.050317727502929476e-07 3.969828076412636072e-08 2.561848425016342023e+00
2.618525266784868522e-01 2.306313407581395223e-03 3.826157435903552667e-07 7.652316338097355438e-08 2.511616102957197949e+00
2.670895772120566170e-01 2.352439675733022494e-03 6.712610605549190478e-07 1.023663864304219252e-07 2.462368728389409789e+00
2.724313687562977537e-01 2.399488469247683213e-03 8.406522649129826221e-07 1.133535759379398490e-07 2.414086988617068386e+00
2.778799961314236677e-01 2.447478238632636981e-03 7.972836872396775913e-07 1.084966107095366665e-07 2.366751949624577023e+00
2.834375960540522210e-01 2.496427803405290493e-03 6.475715281913353247e-07 9.875376422961926615e-08 2.320345048651545561e+00
2.891063479751332377e-01 2.546356359473395982e-03 7.987719501225261527e-07 1.107697836242759733e-07 2.274848086913280110e+00
2.948884749346359357e-01 2.597283486662863797e-03 5.640558847788279299e-07 9.400934066351208315e-08 2.230243222463999864e+00
3.007862444333286311e-01 2.649229156396120353e-03 3.196316680413392574e-07 7.147182520109059153e-08 2.186512963200000215e+00
3.068019693219951605e-01 2.702213739524043316e-03 5.405174005888751361e-08 3.120678761026699347e-08 2.143640160000000350e+00
3.129380087084350781e-01 2.756258014314524538e-03 5.727179922958978619e-08 3.306588975425725726e-08 2.101608000000000143e+00
3.191967688826038430e-01 2.811383174600814907e-03 1.947241173806069870e-08 1.947241211723551370e-08 2.060400000000000009e+00
3.255807042602558710e-01 2.867610838092830849e-03 1.986185997282187039e-08 1.986186036731534572e-08 2.020000000000000018e+00
