#F nifilm-tof-1.dat
#D 2011-01-20 12:57:02
#C Title: Simulated 100 A Ni film
#C Detector Angle: (0.3, 'degree')

#N 5
#L Q(1/A) dQ(1/A) R() dR() L(A)
4.407961417567833780e-03 3.882702766449441973e-05 9.372458290919626345e-01 1.775354267415279186e-01 1.492686886204714014e+01
4.496120645919190681e-03 3.960356821778431436e-05 8.320660193827522644e-01 1.642948906959358912e-01 1.463418515886974447e+01
4.586043058837575154e-03 4.039563958213999821e-05 9.209377516657564211e-01 1.787482733235524757e-01 1.434724035183308111e+01
4.677763920014326587e-03 4.120355237378279357e-05 1.013031526832337548e+00 1.938219802452458840e-01 1.406592191356184429e+01
4.771319198414613293e-03 4.202762342125846015e-05 1.070866417636943346e+00 2.041307694220666491e-01 1.379011952309984679e+01
4.866745582382905368e-03 4.286817588968361986e-05 1.006504732942768321e+00 1.996607517440937285e-01 1.351972502264690945e+01
4.964080494030563909e-03 4.372553940747730175e-05 1.182575015523336548e+00 2.446658925915979055e-01 1.325463237514402870e+01
5.063362103911174875e-03 4.460005019562683653e-05 1.064317513970994167e+00 2.279861583290069826e-01 1.299473762269022359e+01
5.164629345989399899e-03 4.549205119953939047e-05 1.326849167417180064e+00 2.729387872470024901e-01 1.273993884577472713e+01
5.267921932909187463e-03 4.640189222353018398e-05 1.058101899689403602e+00 2.315192317147977685e-01 1.249013612330855594e+01
5.373280371567370865e-03 4.732993006800077844e-05 1.003966453658795333e+00 2.247514031298945836e-01 1.224523149343976058e+01
5.480745978998718439e-03 4.827652866936080119e-05 1.141872628291730196e+00 1.997510575834678115e-01 1.200512891513702129e+01
5.590360898578692304e-03 4.924205924274800976e-05 1.082038078611135212e+00 1.636740428141714443e-01 1.176973423052649181e+01
5.702168116550265613e-03 5.022690042760295884e-05 1.127935517989593350e+00 1.706221215177252948e-01 1.153895512796714939e+01
5.816211478881272261e-03 5.123143843615503469e-05 1.138123322668191717e+00 1.735103719482935514e-01 1.131270110585014521e+01
5.932535708458897515e-03 5.225606720487813281e-05 9.716109321995703985e-01 1.554804134216023759e-01 1.109088343710798519e+01
6.051186422628075830e-03 5.330118854897570495e-05 8.623362481366080301e-01 1.437774200597194685e-01 1.087341513441959329e+01
6.172210151080637607e-03 5.436721231995521309e-05 9.711416990473934474e-01 1.406337980160435319e-01 1.066021091609763971e+01
6.295654354102249613e-03 5.545455656635431843e-05 1.200372033068381139e+00 1.580044835116206081e-01 1.045118717264474562e+01
6.421567441184296114e-03 5.656364769768141144e-05 1.166534774183445089e+00 1.560974548709076482e-01 1.024626193396543528e+01
6.549998790007981360e-03 5.769492065163504021e-05 1.062028683669833162e+00 1.467510806791690603e-01 1.004535483722101574e+01
6.680998765808141351e-03 5.884881906466774346e-05 1.023087631935260422e+00 1.440889414314282801e-01 9.848387095314720341e+00
6.814618741124303138e-03 6.002579544596108166e-05 1.012856755615918702e+00 1.444268751561417208e-01 9.655281465994825396e+00
6.950911115946789218e-03 6.122631135488031345e-05 1.010622598818910811e+00 1.286917009332925466e-01 9.465962221563554380e+00
7.089929338265725349e-03 6.245083758197790969e-05 8.728754372353513258e-01 1.149485555435109385e-01 9.280355119179954926e+00
7.231727925031041643e-03 6.369985433361749635e-05 1.211842065361749210e+00 1.486517131111495527e-01 9.098387371745051411e+00
7.376362483531662649e-03 6.497385142028983787e-05 9.838179053079741943e-01 1.281092713309044395e-01 8.919987619357893749e+00
7.523889733202295503e-03 6.627332844869563029e-05 1.029224885552961988e+00 1.338419925676217204e-01 8.745085901331268730e+00
7.674367527866341430e-03 6.759879501766954805e-05 9.360800334104103504e-01 1.259191884599101252e-01 8.573613628756145744e+00
7.827854878423669283e-03 6.895077091802293630e-05 1.097782498540176954e+00 1.057656242135584235e-01 8.405503557604063758e+00
7.984411975992141558e-03 7.032978633638338744e-05 1.064495551805926699e+00 1.040701908398751208e-01 8.240689762356925741e+00
8.144100215511982863e-03 7.173638206311105329e-05 9.701694181875609724e-01 9.802200543413476519e-02 8.079107610153849706e+00
8.306982219822223873e-03 7.317110970437329279e-05 9.690635255865085451e-01 9.891318831849599258e-02 7.920693735444949368e+00
8.473121864218668975e-03 7.463453189846075918e-05 9.204565296999542845e-01 9.615072195414875456e-02 7.765386015142107468e+00
8.642584301503041314e-03 7.612722253642996895e-05 8.789746457346880870e-01 9.379907743362869699e-02 7.613123544256968245e+00
8.815435987533103840e-03 7.764976698715857347e-05 9.959253992180714388e-01 8.349128286546564359e-02 7.463846612016634907e+00
8.991744707283765708e-03 7.920276232690175037e-05 1.048036143698289679e+00 8.762187716407279781e-02 7.317496678447681369e+00
9.171579601429441855e-03 8.078681757343977074e-05 1.032512331876955791e+00 8.750240738715210631e-02 7.174016351419295390e+00
9.355011193458030727e-03 8.240255392490857455e-05 1.019669775664208800e+00 8.754390369353898249e-02 7.033349364136563864e+00
9.542111417327190856e-03 8.405060500340675797e-05 9.413710454453185772e-01 8.328963939838134045e-02 6.895440553075061985e+00
9.732953645673735749e-03 8.573161710347488391e-05 1.047106337524625896e+00 8.247171760539385998e-02 6.760235836348099880e+00
9.927612718587209423e-03 8.744624944554438241e-05 1.001126210140924844e+00 7.054629621606055279e-02 6.627682192498137503e+00
1.012616497295895472e-02 8.919517443445528577e-05 1.005945527380805782e+00 7.150550352983479907e-02 6.497727639704056202e+00
1.032868827241813399e-02 9.097907792314436140e-05 9.123444498456801943e-01 6.715144661974296880e-02 6.370321215396133496e+00
1.053526203786649476e-02 9.279865948160726462e-05 8.225056592603097183e-01 6.286328144339020652e-02 6.245412956270719462e+00
1.074596727862382577e-02 9.465463267123940504e-05 9.061797926735143394e-01 6.815257393519137674e-02 6.122953878696783647e+00
1.096088662419630183e-02 9.654772532466420398e-05 8.003640987317739430e-01 5.605772338500600305e-02 6.002895959506650669e+00
1.118010435668022849e-02 9.847867983115748860e-05 7.077976526508414912e-01 4.111993478678855479e-02 5.885192117163382974e+00
1.140370644381383421e-02 1.004482534277806576e-04 7.248071772679057778e-01 4.223390687859657905e-02 5.769796193297433540e+00
1.163178057269011016e-02 1.024572184963362431e-04 7.349373563202785675e-01 4.307714316374176844e-02 5.656662934605327209e+00
1.186441618414391282e-02 1.045063628662629894e-04 6.932278421972293270e-01 4.174223174962848198e-02 5.545747975103261673e+00
1.210170450782679236e-02 1.065964901235882473e-04 6.586406714837477194e-01 4.067059514681108795e-02 5.437007818728687880e+00
1.234373859798332772e-02 1.087284199260600093e-04 6.513245465412969004e-01 3.311032508515629469e-02 5.330399822283027333e+00
1.259061336994299340e-02 1.109029883245812219e-04 6.195636377303409548e-01 3.076114079111443717e-02 5.225882178708850745e+00
1.284242563734185570e-02 1.131210480910728347e-04 6.136791977007418630e-01 3.086312271916671207e-02 5.123413900694950840e+00
1.309927415008869250e-02 1.153834690528943066e-04 6.141793751032671445e-01 3.118775898476786740e-02 5.022954804602893120e+00
1.336125963309046753e-02 1.176911384339522171e-04 5.654178496357994410e-01 2.976190164576589595e-02 4.924465494708718083e+00
1.362848482575227359e-02 1.200449612026312332e-04 5.140420675352542768e-01 2.721892730483905370e-02 4.827907347753646050e+00
1.390105452226732090e-02 1.224458604266838652e-04 5.222648540376239046e-01 2.368755235996823291e-02 4.733242497797691684e+00
1.417907561271266985e-02 1.248947776352175452e-04 5.233517295446764583e-01 2.395668345330724189e-02 4.640433821370285372e+00
1.446265712496692252e-02 1.273926731879218728e-04 4.956364041148731969e-01 2.333052344238585596e-02 4.549444922912044831e+00
1.475191026746626097e-02 1.299405266516803206e-04 4.973105537465449255e-01 2.361564123835103654e-02 4.460240120502004579e+00
1.504694847281558626e-02 1.325393371847139465e-04 4.484333146840527307e-01 2.227554131256861622e-02 4.372784431864710442e+00
1.534788744227189722e-02 1.351901239284082374e-04 4.679207421508675968e-01 2.200086307216881157e-02 4.287043560651676799e+00
1.565484519111733780e-02 1.378939264069764298e-04 4.228853088142823791e-01 1.642675469429111940e-02 4.202983882991839337e+00
1.596794209493968345e-02 1.406518049351159491e-04 4.157908808339703666e-01 1.640939808827097598e-02 4.120572434305724840e+00
1.628730093683847940e-02 1.434648410338182660e-04 3.583211709682035950e-01 1.506930387691258859e-02 4.039776896378161730e+00
1.661304695557524677e-02 1.463341378544946367e-04 3.792885582381410603e-01 1.577859183633899265e-02 3.960565584684472284e+00
1.694530789468675150e-02 1.492608206115845343e-04 3.708556934301355801e-01 1.570920626656929081e-02 3.882907435965169185e+00
1.728421405258048771e-02 1.522460370238162017e-04 3.498825679509377506e-01 1.398434160443650341e-02 3.806771996044282957e+00
1.762989833363209913e-02 1.552909577642925566e-04 3.290004759607109697e-01 1.309417649486925225e-02 3.732129407886552119e+00
1.798249630030474000e-02 1.583967769195783872e-04 3.167815786651967391e-01 1.291678058581271181e-02 3.658950399888776683e+00
1.834214622631083480e-02 1.615647124579699804e-04 2.957827997764043149e-01 1.250460886689352957e-02 3.587206274400761341e+00
1.870898915083705344e-02 1.647960067071293849e-04 3.008661841698044848e-01 1.276205575457020625e-02 3.516868896471334605e+00
1.908316893385379048e-02 1.680919268412719308e-04 2.848116649647272070e-01 1.246282092885188375e-02 3.447910682815034100e+00
1.946483231253087059e-02 1.714537653780973938e-04 2.623998456637507970e-01 1.131428860172181000e-02 3.380304590995130809e+00
1.985412895878149037e-02 1.748828406856593081e-04 2.601907832172898338e-01 9.306620156731426272e-03 3.314024108818755643e+00
2.025121153795711795e-02 1.783804974993725187e-04 2.441091437429068478e-01 9.045847073614929346e-03 3.249043243939956582e+00
2.065623576871625927e-02 1.819481074493599837e-04 2.487165017539497425e-01 9.238730301909787654e-03 3.185336513666624292e+00
2.106936048409058584e-02 1.855870695983472104e-04 2.186506616524219182e-01 8.642575315754541868e-03 3.122878934967278752e+00
2.149074769377239819e-02 1.892988109903141183e-04 2.210221803672647034e-01 8.784316079424451737e-03 3.061646014673802263e+00
2.192056264764784962e-02 1.930847872101204370e-04 2.161491146182250023e-01 7.618256121065202467e-03 3.001613739876276554e+00
2.235897390060080300e-02 1.969464829543227818e-04 1.875935170964444787e-01 6.991473638780588973e-03 2.942758568506153694e+00
2.280615337861282080e-02 2.008854126134093263e-04 1.763510705279977553e-01 6.813708031988204537e-03 2.885057420104072179e+00
2.326227644618508034e-02 2.049031208656775058e-04 1.750843864427325258e-01 6.853056612350754036e-03 2.828487666768698006e+00
2.372752197510878333e-02 2.090011832829910521e-04 1.573978958800425765e-01 6.512788625432713689e-03 2.773027124283037104e+00
2.420207241461095476e-02 2.131812069486509285e-04 1.620033602326731992e-01 6.677282159951483144e-03 2.718654043414742372e+00
2.468611386290317511e-02 2.174448310876238375e-04 1.461293735351460177e-01 5.531073042078500472e-03 2.665347101387002482e+00
2.517983614016124083e-02 2.217937277093763690e-04 1.266941668549702305e-01 5.157096277784322357e-03 2.613085393516668908e+00
2.568343286296446287e-02 2.262296022635638818e-04 1.307483801943292445e-01 5.300601294454005720e-03 2.561848425016342023e+00
2.619710152022375338e-02 2.307541943088351963e-04 1.279357696901496921e-01 5.288862298051503694e-03 2.511616102957197949e+00
2.672104355062823039e-02 2.353692781950118427e-04 1.219925716618163319e-01 5.202185776701550093e-03 2.462368728389409789e+00
2.725546442164079528e-02 2.400766637589121018e-04 1.097645193833741012e-01 4.856081147041314827e-03 2.414086988617068386e+00
2.780057371007360958e-02 2.448781970340903466e-04 1.101436937128386778e-01 4.781802661930878960e-03 2.366751949624577023e+00
2.835658518427508837e-02 2.497757609747722229e-04 9.918542469488859925e-02 4.560177404763772306e-03 2.320345048651545561e+00
2.892371688796058563e-02 2.547712761942676424e-04 9.611067652934761341e-02 4.527260053565784585e-03 2.274848086913280110e+00
2.950219122571980102e-02 2.598667017181530213e-04 7.739438688942172628e-02 4.067847071476723281e-03 2.230243222463999864e+00
3.009223505023419371e-02 2.650640357525160416e-04 8.299059640296543860e-02 4.265298196624053677e-03 2.186512963200000215e+00
3.069407975123887578e-02 2.703653164675663494e-04 7.895683785338679372e-02 4.409139769047673921e-03 2.143640160000000350e+00
3.130796134626365884e-02 2.757726227969176905e-04 7.108731744604242231e-02 4.290728806098214818e-03 2.101608000000000143e+00
3.193412057318893021e-02 2.812880752528560649e-04 6.634332707770508597e-02 4.177051423000462116e-03 2.060400000000000009e+00
3.257280298465271146e-02 2.869138367579131439e-04 5.811083541282095061e-02 3.932936490186967129e-03 2.020000000000000018e+00
